Time [s],Pressure [mbar],N injection,Time opening [ms],Tau injection [ms],Mass [g]
1619424498.65231,284.5625,62,10,100,0.295
1619424501.24901,284.4375,87,10,100,0.525
1619424503.84745,284.3125,113,10,100,0.854
1619424506.43332,284.1875,139,10,100,1.04
1619424509.03509,284,165,10,100,1.281
1619424511.63694,283.875,190,10,100,1.624
1619424514.23164,283.6875,216,10,100,1.808
1619424516.82665,283.5625,242,10,100,2.049
1619424519.42723,283.375,268,10,100,2.261
1619424522.02288,283.1875,293,10,100,2.598
1619424524.61731,283,319,10,100,2.792
1619424527.21866,282.75,345,10,100,3.027
1619424529.81747,282.5625,371,10,100,3.322
1619424532.40834,282.375,396,10,100,3.558
1619424535.00468,282.1875,422,10,100,3.785
1619424537.61219,282.0625,448,10,100,4.119
1619424540.20113,281.875,473,10,100,4.305
1619424542.79572,281.6875,498,10,100,4.518
1619424545.39141,281.5625,524,10,100,4.858
1619424547.99628,281.375,550,10,100,5.058
1619424550.59197,281.1875,575,10,100,5.277
1619424553.18747,281,601,10,100,5.647
1619424555.81319,280.8125,628,10,100,5.826
1619424558.43001,280.625,654,10,100,6.044
1619424561.03152,280.4375,679,10,100,6.231
1619424563.62506,280.25,705,10,100,6.576
1619424566.22552,280.0625,731,10,100,6.812
1619424568.82211,279.875,757,10,100,7
1619424571.41991,279.6875,782,10,100,7.334
1619424574.01291,279.5,808,10,100,7.551
1619424576.61058,279.25,834,10,100,7.766
1619424579.20596,279.0625,860,10,100,7.973
1619424581.83864,278.875,885,10,100,8.294
1619424584.45616,278.6875,911,10,100,8.52
1619424587.04894,278.5625,937,10,100,8.727
1619424589.64955,278.375,963,10,100,9.068
1619424592.24269,278.25,988,10,100,9.266
1619424594.87715,278.0625,1014,10,100,9.48
1619424597.48863,277.875,1040,10,100,9.821
1619424600.08907,277.6875,1066,10,100,10.017
1619424602.68368,277.5625,1091,10,100,10.238
1619424605.27954,277.375,1117,10,100,10.587
1619424607.9104,277.1875,1144,10,100,10.761
1619424610.52475,277,1170,10,100,10.986
1619424613.12008,276.75,1195,10,100,11.223
1619424615.71608,276.5625,1221,10,100,11.517
1619424618.31384,276.375,1247,10,100,11.756
1619424620.91065,276.1875,1272,10,100,11.976
1619424623.51108,276,1298,10,100,12.267
1619424626.10584,275.8125,1324,10,100,12.496
1619424628.70477,275.5625,1350,10,100,12.687
1619424631.30379,275.375,1375,10,100,13.022
1619424633.89741,275.125,1400,10,100,13.215
1619424636.49473,274.9375,1426,10,100,13.439
1619424639.08593,274.75,1452,10,100,13.678
1619424641.69373,274.625,1477,10,100,13.994
1619424644.28206,274.375,1503,10,100,14.218
1619424646.88718,274.25,1529,10,100,14.4
1619424649.48584,274,1555,10,100,14.652
1619424652.08121,273.875,1580,10,100,14.978
1619424654.68456,273.75,1606,10,100,15.177
1619424657.26775,273.5625,1632,10,100,15.405
1619424659.874,273.375,1658,10,100,15.728
1619424662.46413,273.25,1683,10,100,15.913
1619424665.06266,273.0625,1709,10,100,16.132
1619424667.6571,272.875,1735,10,100,16.373
1619424670.25756,272.75,1761,10,100,16.663
1619424672.86481,272.5625,1786,10,100,16.891
1619424675.44674,272.375,1812,10,100,17.11
1619424678.05276,272.1875,1838,10,100,17.408
1619424680.6437,272,1864,10,100,17.621
1619424683.24311,271.8125,1889,10,100,17.841
1619424685.86803,271.625,1915,10,100,18.171
1619424688.48705,271.375,1941,10,100,18.368
1619424691.08334,271.25,1967,10,100,18.592
1619424693.68583,271.0625,1992,10,100,18.785
1619424696.2783,270.875,2018,10,100,19.114
1619424698.90858,270.6875,2045,10,100,19.337
1619424701.52525,270.5,2071,10,100,19.566
1619424704.11819,270.375,2096,10,100,19.868
1619424706.72282,270.1875,2122,10,100,20.086
1619424709.30994,270,2148,10,100,20.297
1619424711.92528,269.8125,2173,10,100,20.594
1619424714.56292,269.6875,2199,10,100,20.823
1619424717.15634,269.4375,2225,10,100,21
1619424719.75423,269.25,2251,10,100,21.37
1619424722.35011,269.0625,2276,10,100,21.565
1619424724.94629,268.875,2302,10,100,21.747
1619424727.54362,268.75,2328,10,100,21.962
1619424730.14274,268.5625,2354,10,100,22.292
1619424732.74318,268.375,2379,10,100,22.512
1619424735.33449,268.1875,2405,10,100,22.704
1619424737.93589,268,2431,10,100,23.014
1619424740.53437,267.8125,2457,10,100,23.241
1619424743.12659,267.625,2482,10,100,23.421
1619424745.72108,267.4375,2508,10,100,23.769
1619424748.32202,267.25,2534,10,100,23.959
1619424750.91936,267.0625,2560,10,100,24.17
1619424753.51431,266.875,2585,10,100,24.41
1619424756.10955,266.75,2611,10,100,24.718
1619424758.74256,266.625,2637,10,100,24.909
1619424761.38375,266.4375,2663,10,100,25.144
1619424764.03188,266.25,2689,10,100,25.456
1619424766.65274,266.0625,2715,10,100,25.679
1619424769.24418,265.9375,2741,10,100,25.859
1619424771.84846,265.6875,2767,10,100,26.201
1619424774.46824,265.5625,2792,10,100,26.411
1619424777.12471,265.375,2819,10,100,26.605
1619424779.7373,265.1875,2845,10,100,26.927
1619424782.33815,265,2871,10,100,27.145
1619424784.9354,264.8125,2896,10,100,27.357
1619424787.53056,264.6875,2922,10,100,27.558
1619424790.12371,264.5,2948,10,100,27.897
1619424792.7233,264.3125,2973,10,100,28.082
1619424795.32141,264.125,2999,10,100,28.304
1619424797.91474,263.9375,3025,10,100,28.652
1619424800.51743,263.75,3051,10,100,28.837
1619424803.11553,263.5,3076,10,100,29.023
1619424805.70939,263.375,3102,10,100,29.254
1619424808.30579,263.1875,3128,10,100,29.566
1619424810.90958,263,3154,10,100,29.782
1619424813.49803,262.875,3178,10,100,29.972
1619424816.09459,262.6875,3204,10,100,30.32
1619424818.7028,262.5625,3231,10,100,30.503
1619424821.29038,262.3125,3256,10,100,30.723
1619424823.88988,262.1875,3281,10,100,30.949
1619424826.48076,262,3307,10,100,31.255
1619424829.08512,261.8125,3333,10,100,31.47
1619424831.67657,261.625,3359,10,100,31.648
1619424834.28027,261.5,3384,10,100,31.881
1619424836.87793,261.3125,3410,10,100,32.182
1619424839.47017,261.125,3436,10,100,32.4
1619424842.07188,261,3462,10,100,32.623
1619424844.67492,260.8125,3487,10,100,32.854
1619424847.2637,260.625,3513,10,100,33.137
1619424849.86249,260.4375,3539,10,100,33.353
1619424852.45327,260.3125,3565,10,100,33.539
1619424855.06721,260.0625,3590,10,100,33.88
1619424857.70052,259.9375,3616,10,100,34.058
1619424860.30249,259.6875,3643,10,100,34.28
1619424862.89586,259.5625,3668,10,100,34.62
1619424865.48766,259.375,3693,10,100,34.815
1619424868.10279,259.1875,3720,10,100,35.028
1619424870.74043,259,3746,10,100,35.224
1619424873.33246,258.875,3771,10,100,35.559
1619424875.93169,258.625,3797,10,100,35.753
1619424878.52324,258.4375,3823,10,100,35.961
1619424881.12395,258.3125,3849,10,100,36.297
1619424883.72671,258.125,3874,10,100,36.468
1619424886.31799,257.9375,3900,10,100,36.679
1619424888.91259,257.75,3926,10,100,36.909
1619424891.50854,257.625,3952,10,100,37.222
1619424894.10924,257.375,3977,10,100,37.402
1619424896.7079,257.25,4003,10,100,37.613
1619424899.30715,257.0625,4029,10,100,37.934
1619424901.90466,256.9375,4055,10,100,38.124
1619424904.49949,256.75,4079,10,100,38.341
1619424907.09557,256.5625,4105,10,100,38.666
1619424909.66561,256.4375,4131,10,100,38.843
1619424912.29039,256.1875,4157,10,100,39.063
1619424914.88524,256.0625,4182,10,100,39.344
1619424917.48177,255.937484741211,4208,10,100,39.562
1619424920.08406,255.75,4234,10,100,39.765
1619424922.67522,255.562515258789,4260,10,100,39.974
1619424925.2748,255.375,4285,10,100,40.293
1619424927.86795,255.187515258789,4311,10,100,40.471
1619424930.46935,255,4337,10,100,40.68
1619424933.09758,254.875,4363,10,100,41.003
1619424935.71971,254.687484741211,4389,10,100,41.221
1619424938.30921,254.5,4415,10,100,41.397
1619424940.90535,254.375015258789,4441,10,100,41.637
1619424943.50606,254.249984741211,4467,10,100,41.934
1619424946.10243,254.0625,4491,10,100,42.145
1619424948.69988,253.937515258789,4517,10,100,42.326
1619424951.29257,253.75,4543,10,100,42.655
1619424953.89392,253.562515258789,4569,10,100,42.868
1619424956.49041,253.437484741211,4594,10,100,43.044
1619424959.08767,253.25,4620,10,100,43.277
1619424961.689,253.125015258789,4646,10,100,43.577
1619424964.29024,252.9375,4671,10,100,43.799
1619424966.90486,252.8125,4698,10,100,43.975
1619424969.52694,252.624984741211,4724,10,100,44.293
1619424972.12421,252.5,4750,10,100,44.508
1619424974.71884,252.312515258789,4775,10,100,44.721
1619424977.31814,252.125,4801,10,100,45.057
1619424979.91412,252,4827,10,100,45.239
1619424982.50817,251.75,4853,10,100,45.417
1619424985.14454,251.625,4878,10,100,45.642
1619424987.75989,251.437484741211,4904,10,100,45.939
1619424990.35603,251.25,4930,10,100,46.152
1619424992.95119,251.062515258789,4956,10,100,46.365
1619424995.54575,250.937484741211,4981,10,100,46.557
1619424998.1458,250.75,5007,10,100,46.888
1619425000.74285,250.562484741211,5033,10,100,47.066
1619425003.33818,250.4375,5059,10,100,47.281
1619425005.93812,250.250015258789,5084,10,100,47.583
1619425008.53607,250.124984741211,5110,10,100,47.804
1619425011.13333,249.9375,5136,10,100,47.983
1619425013.72699,249.8125,5162,10,100,48.302
1619425016.32284,249.625,5187,10,100,48.478
1619425018.92527,249.4375,5213,10,100,48.693
1619425021.51761,249.25,5239,10,100,48.934
1619425024.15129,249.0625,5265,10,100,49.221
1619425026.76371,248.875,5290,10,100,49.438
1619425029.35878,248.75,5316,10,100,49.617
1619425031.95889,248.5,5342,10,100,49.944
1619425034.55657,248.375,5368,10,100,50.126
1619425037.18213,248.1875,5393,10,100,50.338
1619425039.80708,248,5420,10,100,50.568
1619425042.39401,247.875,5445,10,100,50.869
1619425044.98992,247.75,5471,10,100,51.081
1619425047.58933,247.625,5496,10,100,51.257
1619425050.19038,247.4375,5522,10,100,51.593
1619425052.78377,247.3125,5548,10,100,51.776
1619425055.38286,247.125,5573,10,100,51.991
1619425057.97881,247,5599,10,100,52.169
1619425060.57364,246.875,5625,10,100,52.492
1619425063.17229,246.625,5651,10,100,52.699
1619425065.76779,246.4375,5676,10,100,52.881
1619425068.36759,246.3125,5702,10,100,53.208
1619425070.96311,246.125,5728,10,100,53.416
1619425073.5638,245.9375,5754,10,100,53.589
1619425076.16071,245.75,5779,10,100,53.919
1619425078.75578,245.625,5805,10,100,54.102
1619425081.35525,245.4375,5831,10,100,54.316
1619425083.95177,245.3125,5857,10,100,54.493
1619425086.54712,245.125,5882,10,100,54.817
1619425089.15016,244.9375,5908,10,100,55.035
1619425091.74265,244.75,5934,10,100,55.207
1619425094.33894,244.625,5960,10,100,55.53
1619425096.93404,244.4375,5985,10,100,55.735
1619425099.53124,244.25,6011,10,100,55.907
1619425102.14411,244.125,6037,10,100,56.144
1619425104.77687,243.9375,6063,10,100,56.431
1619425107.37799,243.8125,6088,10,100,56.643
1619425109.97118,243.625,6114,10,100,56.816
1619425112.57003,243.4375,6140,10,100,57.131
1619425115.17089,243.3125,6166,10,100,57.342
1619425117.76623,243.1875,6191,10,100,57.55
1619425120.36275,243,6217,10,100,57.831
1619425122.95563,242.875,6243,10,100,58.039
1619425125.55368,242.6875,6269,10,100,58.245
1619425128.18451,242.5,6294,10,100,58.433
1619425130.79975,242.375,6320,10,100,58.738
1619425133.39647,242.1875,6346,10,100,58.951
1619425135.98933,242,6371,10,100,59.127
1619425138.58569,241.875,6397,10,100,59.474
1619425141.18976,241.75,6423,10,100,59.644
1619425143.78557,241.5,6449,10,100,59.862
1619425146.38111,241.375,6474,10,100,60.037
1619425148.98127,241.25,6500,10,100,60.334
1619425151.57833,241.0625,6526,10,100,60.549
1619425154.17772,240.9375,6552,10,100,60.758
1619425156.76886,240.75,6577,10,100,61.084
1619425159.36638,240.625,6603,10,100,61.251
1619425161.96385,240.4375,6629,10,100,61.459
1619425164.55981,240.3125,6655,10,100,61.637
1619425167.17254,240.125,6680,10,100,61.963
1619425169.80691,239.9375,6707,10,100,62.178
1619425172.40515,239.75,6733,10,100,62.349
1619425174.99674,239.5625,6758,10,100,62.688
1619425177.59473,239.4375,6783,10,100,62.877
1619425180.19329,239.3125,6809,10,100,63.054
1619425182.79272,239.125,6835,10,100,63.269
1619425185.38595,239,6861,10,100,63.588
1619425187.98185,238.8125,6886,10,100,63.76
1619425190.58597,238.625,6912,10,100,63.969
1619425193.19095,238.4375,6938,10,100,64.28
1619425195.82999,238.3125,6965,10,100,64.453
1619425198.42644,238.125,6990,10,100,64.661
1619425201.02288,238,7016,10,100,64.943
1619425203.61713,237.875,7042,10,100,65.155
1619425206.21559,237.625,7068,10,100,65.328
1619425208.81436,237.5,7093,10,100,65.609
1619425211.40928,237.3125,7119,10,100,65.856
1619425214.00792,237.125,7145,10,100,66.039
1619425216.60549,237,7171,10,100,66.253
1619425219.21047,236.875,7196,10,100,66.538
1619425221.79653,236.6875,7221,10,100,66.742
1619425224.39912,236.5625,7247,10,100,66.951
1619425226.98967,236.375,7272,10,100,67.206
1619425229.58798,236.25,7298,10,100,67.436
1619425232.19227,236.0625,7324,10,100,67.641
1619425234.78512,235.9375,7350,10,100,67.815
1619425237.38213,235.75,7375,10,100,68.128
1619425239.97582,235.5625,7401,10,100,68.334
1619425242.57621,235.4375,7427,10,100,68.532
1619425245.17394,235.3125,7453,10,100,68.749
1619425247.76756,235.125,7478,10,100,69.021
1619425250.3698,234.9375,7504,10,100,69.223
1619425252.96485,234.8125,7530,10,100,69.4
1619425255.56,234.625,7556,10,100,69.713
1619425258.18665,234.5,7581,10,100,69.886
1619425260.803,234.3125,7608,10,100,70.103
1619425263.40129,234.1875,7633,10,100,70.408
1619425265.997,234,7659,10,100,70.579
1619425268.5961,233.875,7684,10,100,70.792
1619425271.19318,233.6875,7710,10,100,71.121
1619425273.791,233.5,7736,10,100,71.3
1619425276.39018,233.375,7762,10,100,71.473
1619425278.98394,233.1875,7787,10,100,71.811
1619425281.57864,233.0625,7813,10,100,71.989
1619425284.17715,232.9375,7839,10,100,72.162
1619425286.77828,232.75,7865,10,100,72.373
1619425289.37252,232.625,7890,10,100,72.666
1619425291.97149,232.4375,7916,10,100,72.869
1619425294.57489,232.3125,7942,10,100,73.044
1619425297.19465,232.125,7968,10,100,73.266
1619425299.81333,232,7994,10,100,73.567
1619425302.40977,231.8125,8020,10,100,73.747
1619425305.00284,231.6875,8046,10,100,73.945
1619425307.60406,231.5625,8071,10,100,74.23
1619425310.22964,231.375,8097,10,100,74.44
1619425312.85049,231.1875,8123,10,100,74.618
1619425315.44512,231.0625,8149,10,100,74.904
1619425318.04079,230.875,8174,10,100,75.116
1619425320.6402,230.6875,8200,10,100,75.33
1619425323.23802,230.5625,8226,10,100,75.53
1619425325.83083,230.375,8252,10,100,75.835
1619425328.42832,230.25,8277,10,100,76.006
1619425331.02731,230.0625,8303,10,100,76.208
1619425333.62336,229.9375,8329,10,100,76.393
1619425336.22032,229.8125,8355,10,100,76.713
1619425338.81518,229.6875,8380,10,100,76.889
1619425341.41481,229.5,8406,10,100,77.09
1619425344.0109,229.375,8432,10,100,77.436
1619425346.6304,229.1875,8458,10,100,77.6
1619425349.27027,229,8483,10,100,77.778
1619425351.90786,228.875,8510,10,100,77.992
1619425354.50155,228.6875,8535,10,100,78.268
1619425357.09569,228.625,8561,10,100,78.478
1619425359.70285,228.375,8587,10,100,78.683
1619425362.2969,228.25,8612,10,100,79
1619425364.885,228.125,8638,10,100,79.182
1619425367.48759,227.9375,8664,10,100,79.35
1619425370.08724,227.8125,8689,10,100,79.553
1619425372.67588,227.625,8715,10,100,79.84
1619425375.27794,227.5,8741,10,100,80.055
1619425377.87679,227.3125,8767,10,100,80.22
1619425380.47042,227.1875,8792,10,100,80.524
1619425383.06745,227.0625,8818,10,100,80.728
1619425385.66229,226.875,8844,10,100,80.894
1619425388.26649,226.75,8870,10,100,81.216
1619425390.86168,226.5625,8895,10,100,81.388
1619425393.45509,226.4375,8921,10,100,81.595
1619425396.05763,226.25,8947,10,100,81.785
1619425398.66173,226.125,8972,10,100,82.067
1619425401.24939,226,8998,10,100,82.265
1619425403.84547,225.8125,9024,10,100,82.443
1619425406.44253,225.6875,9050,10,100,82.75
1619425409.04066,225.5,9075,10,100,82.925
1619425411.63543,225.3125,9101,10,100,83.13
1619425414.24059,225.1875,9127,10,100,83.419
1619425416.83453,225,9153,10,100,83.601
1619425419.42457,224.875,9178,10,100,83.805
1619425422.02303,224.6875,9204,10,100,83.978
1619425424.62329,224.5625,9230,10,100,84.292
1619425427.23172,224.4375,9256,10,100,84.493
1619425429.86941,224.25,9281,10,100,84.664
1619425432.46482,224.0625,9307,10,100,84.957
1619425435.06497,223.9375,9333,10,100,85.16
1619425437.65662,223.8125,9359,10,100,85.323
1619425440.26207,223.625,9384,10,100,85.632
1619425442.85468,223.5,9410,10,100,85.807
1619425445.44865,223.375,9436,10,100,86.014
1619425448.04594,223.1875,9462,10,100,86.315
1619425450.6387,223.0625,9487,10,100,86.496
1619425453.24179,222.875,9513,10,100,86.663
1619425455.8422,222.75,9539,10,100,86.953
1619425458.43488,222.5625,9565,10,100,87.159
1619425461.03193,222.4375,9590,10,100,87.359
1619425463.62984,222.3125,9616,10,100,87.532
1619425466.2291,222.1875,9642,10,100,87.821
1619425468.82427,222,9668,10,100,88.022
1619425471.4218,221.875,9693,10,100,88.188
1619425474.01754,221.6875,9719,10,100,88.518
1619425476.61612,221.5625,9745,10,100,88.692
1619425479.24453,221.375,9771,10,100,88.895
1619425481.86394,221.3125,9796,10,100,89.068
1619425484.45685,221.125,9822,10,100,89.387
1619425487.05342,220.9375,9848,10,100,89.559
1619425489.65096,220.8125,9873,10,100,89.757
1619425492.25393,220.6875,9899,10,100,90.043
1619425494.8501,220.5,9925,10,100,90.251
1619425497.44582,220.375,9951,10,100,90.422
1619425500.04502,220.1875,9976,10,100,90.607
1619425502.6428,220,10002,10,100,90.915
1619425505.23396,219.875,10028,10,100,91.083
1619425507.83351,219.75,10054,10,100,91.287
1619425510.43204,219.5625,10079,10,100,91.58
1619425513.02251,219.5,10105,10,100,91.747
1619425515.62221,219.3125,10131,10,100,91.949
1619425518.224,219.1875,10157,10,100,92.225
1619425520.81412,219,10182,10,100,92.429
1619425523.41326,218.875,10208,10,100,92.622
1619425526.0112,218.75,10234,10,100,92.932
1619425528.60562,218.5625,10260,10,100,93.094
1619425531.20467,218.4375,10285,10,100,93.26
1619425533.79931,218.25,10310,10,100,93.537
1619425536.40316,218.125,10336,10,100,93.761
1619425538.99806,218,10362,10,100,93.924
1619425541.59364,217.875,10387,10,100,94.131
1619425544.22458,217.6875,10414,10,100,94.427
1619425546.8413,217.5,10440,10,100,94.599
1619425549.4396,217.375,10466,10,100,94.802
1619425552.03196,217.1875,10491,10,100,95.085
1619425554.62959,217.0625,10517,10,100,95.254
1619425557.22665,216.9375,10543,10,100,95.455
1619425559.82414,216.8125,10569,10,100,95.744
1619425562.42225,216.625,10594,10,100,95.914
1619425565.01848,216.4375,10620,10,100,96.119
1619425567.61553,216.3125,10646,10,100,96.277
1619425570.2194,216.1875,10671,10,100,96.588
1619425572.8096,216.0625,10697,10,100,96.786
1619425575.40669,215.9375,10723,10,100,96.962
1619425578.00538,215.75,10749,10,100,97.266
1619425580.60197,215.625,10773,10,100,97.427
1619425583.21042,215.4375,10800,10,100,97.621
1619425585.84584,215.3125,10826,10,100,97.931
1619425588.43908,215.125,10852,10,100,98.094
1619425591.03997,215,10877,10,100,98.292
1619425593.64714,214.875,10903,10,100,98.591
1619425596.28642,214.75,10929,10,100,98.749
1619425598.87992,214.5625,10955,10,100,98.953
1619425601.47597,214.375,10980,10,100,99.12
1619425604.07513,214.25,11006,10,100,99.427
1619425606.67236,214.125,11032,10,100,99.604
1619425609.27042,214,11058,10,100,99.793
1619425611.86609,213.8125,11083,10,100,100.032
1619425614.46876,213.625,11109,10,100,100.276
1619425617.06228,213.5625,11135,10,100,100.474
1619425619.65442,213.375,11161,10,100,100.635
1619425622.25544,213.25,11186,10,100,100.967
1619425624.85351,213.125,11212,10,100,101.139
1619425627.44865,212.9375,11238,10,100,101.301
1619425630.04612,212.8125,11264,10,100,101.592
1619425632.64371,212.75,11289,10,100,101.762
1619425635.24379,212.5625,11315,10,100,101.961
1619425637.83585,212.375,11341,10,100,102.262
1619425640.43235,212.25,11367,10,100,102.427
1619425643.03587,212.0625,11392,10,100,102.621
1619425645.63709,211.9375,11418,10,100,102.789
1619425648.2263,211.75,11444,10,100,103.085
1619425650.8212,211.625,11470,10,100,103.252
1619425653.42311,211.5,11495,10,100,103.448
1619425656.01466,211.375,11521,10,100,103.753
1619425658.60806,211.25,11547,10,100,103.918
1619425661.24359,211.0625,11572,10,100,104.117
1619425663.85554,210.9375,11598,10,100,104.29
1619425666.4553,210.75,11624,10,100,104.608
1619425669.05363,210.625,11650,10,100,104.768
